Tiempo ( s )	P ( kPa )
0.0000	204.535
0.1000	204.474
0.2000	204.535
0.3000	204.474
0.4000	204.413
0.5000	204.413
0.6000	204.352
0.7000	204.230
0.8000	204.047
0.9000	202.338
1.0000	202.216
1.1000	201.178
1.2000	199.225
1.3000	196.844
1.4000	195.746
1.5000	192.938
1.6000	192.816
1.7000	190.374
1.8000	188.665
1.9000	188.482
2.0000	186.041
2.1000	185.064
2.2000	185.186
2.3000	184.637
2.4000	184.088
2.5000	183.599
2.6000	182.440
2.7000	181.768
2.8000	182.012
2.9000	182.073
3.0000	181.585
3.1000	181.463
3.2000	181.524
3.3000	179.754
3.4000	178.228
3.5000	177.740
3.6000	177.740
3.7000	177.801
3.8000	178.045
3.9000	178.167
4.0000	176.458
4.1000	175.542
4.2000	175.726
4.3000	175.054
4.4000	174.871
4.5000	174.993
4.6000	174.627
4.7000	172.979
4.8000	172.552
4.9000	172.674
5.0000	171.880
5.1000	171.087
5.2000	171.209
5.3000	171.209
5.4000	170.354
5.5000	170.171
5.6000	169.805
5.7000	169.561
5.8000	168.462
5.9000	168.401
6.0000	167.608
6.1000	166.570
6.2000	166.082
6.3000	166.204
6.4000	164.800
6.5000	164.190
6.6000	163.823
6.7000	163.823
6.8000	163.945
6.9000	164.006
7.0000	162.603
7.1000	161.931
7.2000	162.114
7.3000	162.175
7.4000	162.053
7.5000	161.016
7.6000	160.894
7.7000	160.710
7.8000	160.161
7.9000	159.490
8.0000	159.001
8.1000	158.330
8.2000	158.208
8.3000	158.147
8.4000	157.476
8.5000	156.987
8.6000	156.621
8.7000	156.377
8.8000	156.560
8.9000	156.621
9.0000	156.621
9.1000	155.766
9.2000	155.339
9.3000	155.583
9.4000	155.583
9.5000	155.644
9.6000	154.546
9.7000	152.348
9.8000	151.799
9.9000	152.043
10.0000	151.982
10.1000	151.189
10.2000	151.189
10.3000	151.189
10.4000	151.311
10.5000	151.189
10.6000	150.822
10.7000	150.822
10.8000	150.578
10.9000	150.395
11.0000	150.639
11.1000	150.395
11.2000	149.968
11.3000	149.541
11.4000	149.419
11.5000	149.602
11.6000	149.052
11.7000	148.015
11.8000	147.954
11.9000	147.710
12.0000	147.221
12.1000	146.916
12.2000	146.916
12.3000	146.977
12.4000	147.038
12.5000	146.428
12.6000	145.940
12.7000	146.001
12.8000	146.184
12.9000	146.184
13.0000	146.245
13.1000	146.306
13.2000	146.367
13.3000	145.756
13.4000	145.573
13.5000	145.329
13.6000	144.108
13.7000	142.521
13.8000	142.582
13.9000	142.399
14.0000	142.399
14.1000	141.789
14.2000	140.690
14.3000	140.568
14.4000	140.568
14.5000	139.775
14.6000	139.225
14.7000	138.737
14.8000	138.493
14.9000	138.188
15.0000	137.761
15.1000	137.333
15.2000	137.211
15.3000	137.028
15.4000	136.662
15.5000	136.174
15.6000	135.746
15.7000	135.502
15.8000	135.319
15.9000	134.953
16.0000	134.770
16.1000	134.892
16.2000	134.953
16.3000	134.770
16.4000	133.976
16.5000	133.732
16.6000	133.610
16.7000	133.366
16.8000	133.183
16.9000	133.122
17.0000	133.244
17.1000	133.244
17.2000	133.305
17.3000	133.366
17.4000	133.488
17.5000	133.183
17.6000	132.572
17.7000	132.267
17.8000	132.145
17.9000	131.962
18.0000	132.023
18.1000	132.145
18.2000	132.084
18.3000	132.206
18.4000	132.267
18.5000	132.145
18.6000	131.535
18.7000	130.924
18.8000	130.741
18.9000	130.741
19.0000	130.863
19.1000	130.863
19.2000	130.863
19.3000	130.802
19.4000	130.680
19.5000	130.375
19.6000	130.253
19.7000	130.253
19.8000	130.009
19.9000	129.826
20.0000	129.154
20.1000	128.849
20.2000	128.605
20.3000	128.483
20.4000	128.422
20.5000	128.239
20.6000	128.056
20.7000	128.117
20.8000	128.178
20.9000	127.689
21.0000	127.262
21.1000	127.262
21.2000	127.384
21.3000	126.896
21.4000	126.164
21.5000	126.164
21.6000	126.286
21.7000	126.164
21.8000	125.919
21.9000	125.675
22.0000	125.492
22.1000	125.431
22.2000	125.370
22.3000	125.004
22.4000	124.516
22.5000	124.332
22.6000	123.905
22.7000	123.478
22.8000	123.295
22.9000	123.051
23.0000	122.684
23.1000	122.562
23.2000	122.501
23.3000	122.318
23.4000	122.013
23.5000	121.647
23.6000	121.708
23.7000	121.769
23.8000	121.830
23.9000	121.952
24.0000	121.891
24.1000	121.952
24.2000	121.586
24.3000	120.731
24.4000	120.060
24.5000	119.572
24.6000	119.327
24.7000	118.839
24.8000	118.473
24.9000	118.412
25.0000	118.412
25.1000	118.290
25.2000	118.168
25.3000	118.107
25.4000	118.168
25.5000	118.107
25.6000	118.046
25.7000	117.862
25.8000	117.679
25.9000	117.618
26.0000	117.435
26.1000	117.191
26.2000	116.703
26.3000	116.642
26.4000	116.642
26.5000	116.764
26.6000	116.825
26.7000	116.398
26.8000	115.726
26.9000	115.238
27.0000	114.750
27.1000	114.689
27.2000	114.566
27.3000	114.689
27.4000	114.750
27.5000	114.628
27.6000	114.811
27.7000	114.750
27.8000	114.566
27.9000	114.200
28.0000	114.139
28.1000	114.200
28.2000	114.261
28.3000	114.261
28.4000	114.322
28.5000	114.322
28.6000	113.773
28.7000	113.285
28.8000	113.285
28.9000	113.224
29.0000	113.224
29.1000	113.285
29.2000	113.285
29.3000	113.285
29.4000	113.407
29.5000	112.980
29.6000	112.308
29.7000	112.308
29.8000	112.308
29.9000	112.308
30.0000	112.308
30.1000	112.308
30.2000	112.125
30.3000	111.820
30.4000	111.637
30.5000	111.393
30.6000	111.454
30.7000	111.576
30.8000	111.332
30.9000	110.660
31.0000	110.538
31.1000	110.660
31.2000	110.660
31.3000	110.477
31.4000	110.355
31.5000	110.416
31.6000	110.355
31.7000	110.294
31.8000	109.684
31.9000	109.378
32.0000	109.439
32.1000	109.500
32.2000	109.500
32.3000	109.561
32.4000	109.500
32.5000	109.439
32.6000	109.012
32.7000	108.768
32.8000	108.829
32.9000	108.829
33.0000	109.012
33.1000	108.890
33.2000	108.951
33.3000	108.402
33.4000	107.730
33.5000	107.425
33.6000	107.547
33.7000	107.669
33.8000	107.486
33.9000	107.364
34.0000	106.998
34.1000	106.937
34.2000	107.059
34.3000	107.059
34.4000	106.693
34.5000	106.326
34.6000	106.265
34.7000	106.388
34.8000	106.449
34.9000	106.449
35.0000	106.265
35.1000	105.777
35.2000	105.472
35.3000	105.533
35.4000	105.167
35.5000	104.740
35.6000	104.495
35.7000	104.251
35.8000	104.007
35.9000	104.007
36.0000	104.129
36.1000	104.068
36.2000	103.763
36.3000	103.214
36.4000	103.030
36.5000	103.030
36.6000	102.664
36.7000	102.786
36.8000	102.786
36.9000	102.847
37.0000	102.847
37.1000	102.847
37.2000	102.298
37.3000	101.932
37.4000	101.871
37.5000	101.932
37.6000	101.993
37.7000	101.688
37.8000	101.077
37.9000	101.077
38.0000	101.077
38.1000	101.138
38.2000	101.199
38.3000	101.321
38.4000	101.382
